t (s),V (mV)
0,13.7947
1.013,13.7659
2.014,13.7429
3.014,13.7298
4.018,13.7179
5.013,13.6939
6.014,13.6647
7.014,13.6425
8.014,13.6163
9.013,13.5887
10.018,13.5631
11.014,13.5398
12.013,13.5156
13.014,13.4945
14.014,13.4641
15.013,13.4385
16.018,13.4126
17.013,13.3812
18.014,13.3531
19.013,13.3326
20.014,13.3086
21.013,13.2821
22.014,13.2624
23.013,13.2477
24.014,13.2173
25.013,13.186
26.013,13.1722
27.014,13.1533
28.013,13.1279
29.013,13.1017
30.014,13.0755
31.013,13.0569
32.014,13.0243
33.014,12.9973
34.013,12.9662
35.014,12.9433
36.013,12.914
37.014,12.8906
38.014,12.8716
39.013,12.8329
40.018,12.8057
41.014,12.7777
42.014,12.7603
43.014,12.7367
44.013,12.722
45.013,12.6953
46.014,12.6691
47.014,12.646
48.014,12.6097
49.013,12.5904
50.014,12.5655
51.014,12.546
52.013,12.526
53.014,12.4939
54.013,12.4786
55.014,12.4505
56.013,12.4316
57.014,12.4074
58.013,12.3919
59.014,12.3688
60.014,12.3405
61.014,12.3175
62.013,12.296
63.014,12.2753
64.013,12.2548
65.014,12.2267
66.013,12.2074
67.013,12.1847
68.014,12.1511
69.013,12.1391
70.018,12.1249
71.014,12.0921
72.014,12.0819
73.013,12.0572
74.014,12.027
75.013,11.9972
76.014,11.9885
77.014,11.9638
78.013,11.9381
79.014,11.9155
80.014,11.904
81.013,11.875
82.018,11.8538
83.013,11.835
84.014,11.8336
85.013,11.8008
86.013,11.7674
87.014,11.7471
88.013,11.7185
89.014,11.6969
90.013,11.6867
91.015,11.6586
92.013,11.6398
93.013,11.6237
94.014,11.6051
95.014,11.5837
96.013,11.5645
97.013,11.5359
98.014,11.5188
99.014,11.5047
100.013,11.4809
101.014,11.456
102.013,11.4292
103.014,11.4125
104.013,11.3918
105.014,11.3769
106.013,11.3611
107.013,11.3462
108.014,11.3216
109.013,11.2953
110.014,11.2823
111.013,11.2621
112.013,11.2324
113.014,11.2021
114.013,11.1951
115.013,11.1636
116.014,11.1483
117.014,11.1232
118.018,11.1064
119.014,11.09
120.013,11.0659
121.014,11.0529
122.013,11.0309
123.013,11.0086
124.014,10.9838
125.014,10.9678
126.013,10.9512
127.013,10.9392
128.014,10.9123
129.014,10.9015
130.018,10.8738
131.013,10.848
132.013,10.8277
133.014,10.8027
134.013,10.7847
135.014,10.7602
136.018,10.7471
137.014,10.7251
138.013,10.7057
139.014,10.7008
140.013,10.6811
141.014,10.6578
142.013,10.6352
143.013,10.6159
144.012,10.5918
145.013,10.5764
146.012,10.5561
147.012,10.5385
148.012,10.5286
149.012,10.5069
150.013,10.4845
151.013,10.4678
152.012,10.4499
153.012,10.4317
154.013,10.4151
155.012,10.3917
156.013,10.3694
157.013,10.348
158.012,10.3252
159.012,10.3097
160.012,10.2948
161.013,10.2761
162.012,10.2567
163.012,10.2403
164.013,10.2316
165.012,10.2086
166.017,10.1798
167.013,10.1716
168.012,10.1573
169.012,10.1347
170.012,10.1189
171.013,10.0986
172.012,10.0763
173.013,10.0639
174.012,10.0277
175.012,10.027
176.013,10.0069
177.013,9.997
178.018,9.9739
179.014,9.9587
180.014,9.9446
181.013,9.9193
182.013,9.8971
183.014,9.8907
184.013,9.8701
185.013,9.8476
186.014,9.8247
187.013,9.8051
188.013,9.7867
189.014,9.774
190.013,9.7496
191.014,9.7348
192.013,9.7155
193.013,9.7016
194.014,9.6881
195.014,9.6673
196.018,9.6544
197.014,9.6307
198.014,9.6009
199.013,9.5879
200.013,9.5855
201.014,9.5607
202.013,9.5474
203.014,9.5322
204.013,9.5224
205.013,9.5041
206.014,9.4868
207.013,9.4639
208.021,9.4435
209.014,9.432
210.013,9.4266
211.014,9.4023
212.013,9.3923
213.014,9.3755
214.018,9.3492
215.014,9.3309
216.013,9.3155
217.014,9.3089
218.013,9.2907
219.013,9.2783
220.019,9.2693
221.014,9.2435
222.013,9.2242
223.014,9.2074
224.013,9.1909
225.013,9.1734
226.014,9.1502
227.014,9.1386
228.013,9.1273
229.013,9.1041
230.014,9.0814
231.013,9.0615
232.013,9.0588
233.014,9.0486
234.013,9.0298
235.013,9.0208
236.014,8.9969
237.014,8.9884
238.013,8.973
239.014,8.9587
240.014,8.9429
241.013,8.9167
242.013,8.9037
243.014,8.8885
244.019,8.8816
245.014,8.8654
246.014,8.8398
247.013,8.8343
248.014,8.8225
249.013,8.8059
250.014,8.7891
251.013,8.7763
252.014,8.7613
253.013,8.7483
254.014,8.7201
255.013,8.7082
256.018,8.689
257.013,8.6753
258.014,8.6648
259.013,8.6464
260.014,8.6326
261.014,8.6134
262.013,8.5896
263.014,8.5793
264.013,8.5494
265.014,8.5526
266.013,8.524
267.014,8.5253
268.018,8.51
269.013,8.4826
270.014,8.4704
271.013,8.4546
272.014,8.4395
273.013,8.437
274.013,8.4121
275.014,8.3984
276.013,8.3766
277.014,8.3589
278.014,8.3537
279.014,8.3333
280.014,8.3246
281.013,8.3139
282.013,8.2967
283.013,8.2908
284.013,8.2736
285.013,8.2503
286.013,8.2409
287.013,8.2269
288.013,8.2059
289.013,8.1939
290.013,8.1658
291.013,8.1554
292.013,8.1427
293.013,8.129
294.014,8.1197
295.014,8.1137
296.014,8.0961
297.013,8.0853
298.014,8.0648
299.013,8.055
300.014,8.04
301.014,8.027
302.013,8.0132
303.013,7.993
304.014,7.9777
305.014,7.961
306.013,7.938
307.013,7.9305
308.014,7.9166
309.014,7.9059
310.013,7.9037
311.013,7.8849
312.014,7.8731
313.013,7.8649
314.013,7.8522
315.013,7.8287
316.013,7.8167
317.014,7.8068
318.014,7.7894
319.014,7.7773
320.013,7.7681
321.013,7.7536
322.018,7.7456
323.014,7.7224
324.013,7.7086
325.013,7.6821
326.014,7.6773
327.014,7.6517
328.018,7.6497
329.013,7.6274
330.013,7.6246
331.013,7.6113
332.013,7.5978
333.013,7.5785
334.019,7.5671
335.013,7.5565
336.013,7.5349
337.014,7.529
338.014,7.5185
339.014,7.5023
340.018,7.484
341.013,7.4664
342.013,7.4598
343.013,7.436
344.014,7.4281
345.013,7.4202
346.014,7.4115
347.014,7.406
348.013,7.3811
349.014,7.3714
350.013,7.3477
351.014,7.3496
352.013,7.3329
353.014,7.3181
354.013,7.3061
355.013,7.2983
356.013,7.2821
357.014,7.2601
358.013,7.2461
359.013,7.2339
360.013,7.2265
361.014,7.2121
362.014,7.2068
363.013,7.1935
364.013,7.1771
365.014,7.165
366.013,7.1542
367.013,7.1464
368.013,7.1344
369.014,7.1251
370.014,7.099
371.014,7.0969
372.014,7.0811
373.013,7.0727
